;;Phase, gmag, rmag, imag, zmag, Temp (K)
;;Note: the photometry and phase is based on a z=0.074
      -4.0000000       23.463845       23.457399       22.367905       22.524542       5913.9343
      -3.5000000       22.779306       22.772444       21.639634       21.800092       8500.1740
      -3.0000000       22.362738       22.355726       21.207629       21.369403       11086.414
      -2.5000000       21.711149       21.798734       20.899418       21.061858       13672.653
      -2.0000000       21.067581       21.219123       20.659631       20.822474       16258.893
      -1.5000000       20.666265       20.843267       20.566451       20.626452       18845.133
      -1.0000000       20.373909       20.564597       20.583934       20.460467       21431.372
     -0.50000000       20.143808       20.343041       20.601702       20.426680       24017.612
       0.0000000       19.954048       20.159123       20.619766       20.470007       16287.781
      0.50000000       19.984929       20.182409       20.638136       20.515135       15990.949
       1.0000000       20.016715       20.211839       20.657442       20.562220       15699.629
       1.5000000       20.049459       20.242089       20.685647       20.611440       15413.772
       2.0000000       20.083222       20.273206       20.714604       20.662998       15133.331
       2.5000000       20.118068       20.305241       20.744354       20.717127       14858.259
       3.0000000       20.154070       20.338250       20.774943       20.774097       14588.507
       3.5000000       20.191307       20.372294       20.806418       20.834222       14324.028
       4.0000000       20.229866       20.407440       20.838834       20.897873       14064.773
       4.5000000       20.269845       20.443763       20.872247       20.965489       13810.696
       5.0000000       20.311353       20.481342       20.906721       21.037598       13561.748
       5.5000000       20.354511       20.520269       20.942325       21.114838       13317.881
       6.0000000       20.399456       20.560644       20.979137       21.197997       13079.048
       6.5000000       20.446342       20.602578       21.017241       21.288058       12845.200
       7.0000000       20.495345       20.646198       21.056731       21.386270       12616.291
       7.5000000       20.546664       20.691643       21.097711       21.494258       12392.272
       8.0000000       20.600529       20.739074       21.140300       21.501577       12173.096
       8.5000000       20.657207       20.788672       21.184627       21.506707       11958.715
       9.0000000       20.717008       20.840644       21.230841       21.511861       11749.080
       9.5000000       20.780295       20.895230       21.279111       21.517040       11544.144
       10.000000       20.847501       20.952707       21.329626       21.522243       11343.860
       10.500000       20.919143       21.013397       21.382607       21.527472       11148.179
       11.000000       20.995849       21.077681       21.438307       21.532726       10957.054
       11.500000       21.078388       21.146012       21.497019       21.538005       10770.437
       12.000000       21.167722       21.218934       21.559088       21.543310       10588.281
       12.500000       21.265070       21.297109       21.586455       21.548642       10410.536
       13.000000       21.372015       21.381353       21.592213       21.553999       10237.156
       13.500000       21.490656       21.472687       21.598002       21.559383       10068.093
       14.000000       21.623871       21.572415       21.603822       21.564794       9903.2992
       14.500000       21.673100       21.598243       21.609674       21.570232       9742.7264
       15.000000       21.712388       21.611925       21.615557       21.575698       9586.3270
       15.500000       21.753152       21.625780       21.621472       21.581191       9434.0532
       16.000000       21.795505       21.639815       21.627420       21.586712       9285.8573
       16.500000       21.839579       21.654034       21.633400       21.592261       9141.6915
       17.000000       21.885517       21.668442       21.639414       21.597839       9001.5079
       17.500000       21.933485       21.683043       21.645461       21.603445       8865.2587
       18.000000       21.983671       21.697843       21.651542       21.609081       8732.8963
       18.500000       22.036289       21.712848       21.657657       21.614746       8604.3727
       19.000000       22.091588       21.728063       21.663806       21.620441       8479.6403
       19.500000       22.149855       21.743494       21.669991       21.626165       8358.6511
       20.000000       22.211427       21.759148       21.676211       21.631920       8241.3575
       20.500000       22.276702       21.775031       21.682467       21.637706       8127.7115
       21.000000       22.346154       21.791150       21.688760       21.643523       8017.6656
       21.500000       22.420355       21.807511       21.695089       21.649371       7911.1717
       22.000000       22.500000       21.824123       21.701455       21.655251       7808.1822
       22.500000       22.522858       21.840993       21.707859       21.661163       7708.6493
       23.000000       22.546209       21.858129       21.714300       21.667107       7612.5251
       23.500000       22.570072       21.875540       21.720780       21.673084       7519.7619
       24.000000       22.594471       21.893235       21.727299       21.679094       7430.3119
       24.500000       22.619432       21.911223       21.733858       21.685137       7344.1273
       25.000000       22.644980       21.929514       21.740456       21.691214       7261.1603
       25.500000       22.671143       21.948119       21.747095       21.697326       7181.3631
       26.000000       22.697953       21.967047       21.753774       21.703472       7104.6879
       26.500000       22.725442       21.986312       21.760495       21.709653       7031.0870
       27.000000       22.753644       22.005925       21.767257       21.716569       6960.5125
       27.500000       22.782599       22.025898       21.774062       21.727280       6892.9166
       28.000000       22.812347       22.041889       21.780910       21.738098       6828.2516
       28.500000       22.816664       22.050410       21.787802       21.749024       6766.4697
       29.000000       22.820998       22.058997       21.794737       21.760062       6707.5230
       29.500000       22.825350       22.067653       21.801717       21.771213       6651.3639
       30.000000       22.829719       22.076379       21.808742       21.782480       6597.9444
       30.500000       22.834106       22.085175       21.815813       21.793864       6547.2168
       31.000000       22.838510       22.094044       21.822931       21.805370       6499.1333
       31.500000       22.842933       22.102985       21.830095       21.816999       6453.6462
       32.000000       22.847374       22.112000       21.837307       21.828753       6410.7075
       32.500000       22.851833       22.121091       21.844567       21.840637       6370.2697
       33.000000       22.856310       22.130259       21.851876       21.852651       6332.2847
       33.500000       22.860806       22.139505       21.859234       21.864801       6296.7049
       34.000000       22.865320       22.148830       21.866643       21.877087       6263.4825
       34.500000       22.869853       22.158236       21.874071       21.889515       6232.5697
       35.000000       22.874406       22.167724       21.881245       21.902086       6203.9186
       35.500000       22.878977       22.177296       21.888467       21.914805       6177.4815
       36.000000       22.883568       22.186953       21.895737       21.927674       6153.2106
       36.500000       22.888179       22.196697       21.903057       21.940698       6131.0582
       37.000000       22.892809       22.206529       21.910426       21.953879       6110.9763
       37.500000       22.897458       22.216450       21.917845       21.967223       6092.9173
       38.000000       22.902128       22.226464       21.925316       21.980733       6076.8333
       38.500000       22.906818       22.236570       21.932838       21.994413       6062.6765
       39.000000       22.911529       22.246772       21.940413       22.008268       6050.3992
       39.500000       22.916259       22.257070       21.948041       22.022301       6039.9536
       40.000000       22.921011       22.267466       21.955722       22.036519       6031.2918
       40.500000       22.925784       22.277964       21.963459       22.050925       6024.3661
       41.000000       22.930577       22.288564       21.971251       22.065525       6019.1287
       41.500000       22.935392       22.299268       21.979100       22.080324       6015.5318
       42.000000       22.940228       22.310079       21.987005       22.095327       6013.5276
       42.500000       22.945086       22.320998       21.994969       22.110541       6013.0683
       43.000000       22.949966       22.332029       22.002991       22.125970       6014.1062
       43.500000       22.954868       22.343173       22.011074       22.141623       6016.5933
       44.000000       22.959791       22.354432       22.019216       22.155033       6020.4821
       44.500000       22.964738       22.365809       22.027421       22.166706       6025.7245
       45.000000       22.969707       22.377307       22.035688       22.178506       6032.2729
       45.500000       22.974699       22.388928       22.044018       22.190435       6040.0795
       46.000000       22.979714       22.400675       22.052412       22.202497       6049.0965
       46.500000       22.984752       22.412550       22.060872       22.214695       6059.2761
       47.000000       22.989814       22.424556       22.069399       22.227031       6070.5704
       47.500000       22.994899       22.436697       22.077993       22.239509       6082.9318
       48.000000       23.000009       22.448975       22.086655       22.252132       6096.3123
       48.500000       23.005142       22.461393       22.095388       22.264904       6110.6643
       49.000000       23.010300       22.473955       22.104191       22.277827       6125.9399
       49.500000       23.015482       22.486664       22.113066       22.290906       6142.0914
       50.000000       23.020690       22.499524       22.122014       22.304145       6159.0709
